 @# k   band (eV)
            0.0000000000000           -0.7184738159893           -0.7184738159893           -0.0305946244510           -0.0305946244510            0.0311043434973            0.0311043434973            0.7199519352274            0.7199519352274
            0.0012690355330           -0.7185063748226           -0.7185063748226           -0.0309767067927           -0.0309767067927            0.0307221126404            0.0307221126404            0.7195695298738            0.7195695298738
            0.0025380710660           -0.7186040293267           -0.7186040293267           -0.0321225718863           -0.0321225718863            0.0295758011148            0.0295758011148            0.7184226926448            0.7184226926448
            0.0038071065990           -0.7187667136339           -0.7187667136339           -0.0340310742603           -0.0340310742603            0.0276665517203            0.0276665517203            0.7165125596665            0.7165125596665
            0.0050761421320           -0.7189943183671           -0.7189943183671           -0.0367003058730           -0.0367003058730            0.0249962680037            0.0249962680037            0.7138410232533            0.7138410232533
            0.0063451776650           -0.7192866912495           -0.7192866912495           -0.0401275977219           -0.0401275977219            0.0215676125854            0.0215676125854            0.7104107300649            0.7104107300649
            0.0076142131980           -0.7196436379723           -0.7196436379723           -0.0443095220873           -0.0443095220873            0.0173840048230            0.0173840048230            0.7062250785296            0.7062250785296
            0.0088832487310           -0.7200649233346           -0.7200649233346           -0.0492418953987           -0.0492418953987            0.0124496178231            0.0124496178231            0.7012882155355            0.7012882155355
            0.0101522842640           -0.7205502726747           -0.7205502726747           -0.0549197817078           -0.0549197817078            0.0067693748109            0.0067693748109            0.6956050323941            0.6956050323941
            0.0114213197970           -0.7210993736178           -0.7210993736178           -0.0613374967521           -0.0613374967521            0.0003489448733            0.0003489448733            0.6891811600807            0.6891811600807
            0.0126903553299           -0.7217118781724           -0.7217118781724           -0.0684886125831           -0.0684886125831           -0.0068052619080           -0.0068052619080            0.6820229637548            0.6820229637548
            0.0139593908629           -0.7223874052141           -0.7223874052141           -0.0763659627316           -0.0763659627316           -0.0146860999098           -0.0146860999098            0.6741375365703            0.6741375365703
            0.0152284263959           -0.7231255434074           -0.7231255434074           -0.0849616478759           -0.0849616478759           -0.0232856939828           -0.0232856939828            0.6655326927776            0.6655326927776
            0.0164974619289           -0.7239258546254           -0.7239258546254           -0.0942670419673           -0.0942670419673           -0.0325954459948           -0.0325954459948            0.6562169601289            0.6562169601289
            0.0177664974619           -0.7247878779431           -0.7247878779431           -0.1042727987644           -0.1042727987644           -0.0426060418652           -0.0426060418652            0.6461995715930            0.6461995715930
            0.0190355329949           -0.7257111342985           -0.7257111342985           -0.1149688587095           -0.1149688587095           -0.0533074590434           -0.0533074590434            0.6354904563889            0.6354904563889
            0.0203045685279           -0.7266951319351           -0.7266951319351           -0.1263444560724           -0.1263444560724           -0.0646889743757           -0.0646889743757            0.6241002303493            0.6241002303493
            0.0215736040609           -0.7277393727721           -0.7277393727721           -0.1383881262649           -0.1383881262649           -0.0767391722921           -0.0767391722921            0.6120401856228            0.6120401856228
            0.0228426395939           -0.7288433598801           -0.7288433598801           -0.1510877132095           -0.1510877132095           -0.0894459532312           -0.0894459532312            0.5993222797274            0.5993222797274
            0.0241116751269           -0.7300066062897           -0.7300066062897           -0.1644303766163           -0.1644303766163           -0.1027965421997           -0.1027965421997            0.5859591239684            0.5859591239684
            0.0253807106599           -0.7312286454176           -0.7312286454176           -0.1784025989865           -0.1784025989865           -0.1167774973430           -0.1167774973430            0.5719639712312            0.5719639712312
            0.0266497461929           -0.7325090434724           -0.7325090434724           -0.1929901921118           -0.1929901921118           -0.1313747183681           -0.1313747183681            0.5573507031661            0.5573507031661
            0.0279187817259           -0.7338474143055           -0.7338474143055           -0.2081783027792           -0.2081783027792           -0.1465734546233           -0.1465734546233            0.5421338167769            0.5421338167769
            0.0291878172589           -0.7352434373025           -0.7352434373025           -0.2239514173051           -0.2239514173051           -0.1623583125844           -0.1623583125844            0.5263284104312            0.5263284104312
            0.0304568527919           -0.7366968790952           -0.7366968790952           -0.2402933644154           -0.2402933644154           -0.1787132624290           -0.1787132624290            0.5099501693070            0.5099501693070
            0.0317258883249           -0.7382076201090           -0.7382076201090           -0.2571873158370           -0.2571873158370           -0.1956216432866           -0.1956216432866            0.4930153502940            0.4930153502940
            0.0329949238579           -0.7397756872929           -0.7397756872929           -0.2746157837647           -0.2746157837647           -0.2130661666271           -0.2130661666271            0.4755407663676            0.4755407663676
            0.0342639593909           -0.7414012948270           -0.7414012948270           -0.2925606140852           -0.2925606140852           -0.2310289170797           -0.2310289170797            0.4575437704539            0.4575437704539
            0.0355329949239           -0.7430848952315           -0.7430848952315           -0.3110029738517           -0.3110029738517           -0.2494913497377           -0.2494913497377            0.4390422388066            0.4390422388066
            0.0368020304569           -0.7448272441799           -0.7448272441799           -0.3299233309444           -0.3299233309444           -0.2684342826748           -0.2684342826748            0.4200545539164            0.4200545539164
            0.0380710659898           -0.7466294835801           -0.7466294835801           -0.3493014230664           -0.3493014230664           -0.2878378829353           -0.2878378829353            0.4005995869750            0.4005995869750
            0.0393401015228           -0.7484932493011           -0.7484932493011           -0.3691162120663           -0.3691162120663           -0.3076816435914           -0.3076816435914            0.3806966799169            0.3806966799169
            0.0406091370558           -0.7504208125910           -0.7504208125910           -0.3893458178893           -0.3893458178893           -0.3279443484920           -0.3279443484920            0.3603656270626            0.3603656270626
            0.0418781725888           -0.7524152682053           -0.7524152682053           -0.4099674239083           -0.4099674239083           -0.3486040198975           -0.3486040198975            0.3396266563898            0.3396266563898
            0.0431472081218           -0.7544807882901           -0.7544807882901           -0.4309571415164           -0.4309571415164           -0.3696378420448           -0.3696378420448            0.3185004104587            0.3185004104587
            0.0444162436548           -0.7566229703651           -0.7566229703651           -0.4522898158391           -0.4522898158391           -0.3910220504057           -0.3910220504057            0.2970079270194            0.2970079270194
            0.0456852791878           -0.7588493224000           -0.7588493224000           -0.4739387448985           -0.4739387448985           -0.4127317712808           -0.4127317712808            0.2751706193319            0.2751706193319
            0.0469543147208           -0.7611699515248           -0.7611699515248           -0.4958752691623           -0.4958752691623           -0.4347407882260           -0.4347407882260            0.2530102562291            0.2530102562291
            0.0482233502538           -0.7635985615981           -0.7635985615981           -0.5180681629939           -0.5180681629939           -0.4570211985387           -0.4570211985387            0.2305489419579            0.2305489419579
            0.0494923857868           -0.7661539298928           -0.7661539298928           -0.5404827166387           -0.5404827166387           -0.4795429008822           -0.4795429008822            0.2078090958318            0.2078090958318
            0.0507614213198           -0.7688621449434           -0.7688621449434           -0.5630793235626           -0.5630793235626           -0.5022728171568           -0.5022728171568            0.1848134317342            0.1848134317342
            0.0520304568528           -0.7717600838320           -0.7717600838320           -0.5858112586661           -0.5858112586661           -0.5251736847957           -0.5251736847957            0.1615849375119            0.1615849375119
            0.0532994923858           -0.7749009569487           -0.7749009569487           -0.6086211046517           -0.6086211046517           -0.5482021341422           -0.5482021341422            0.1381468543031            0.1381468543031
            0.0545685279188           -0.7783633726835           -0.7783633726835           -0.6314348865163           -0.6314348865163           -0.5713055384629           -0.5713055384629            0.1145226558459            0.1145226558459
            0.0558375634518           -0.7822664528381           -0.7822664528381           -0.6541523314143           -0.6541523314143           -0.5944166885418           -0.5944166885418            0.0907360278173            0.0907360278173
            0.0571065989848           -0.7867951537290           -0.7867951537290           -0.6766308958122           -0.6766308958122           -0.6174444949489           -0.6174444949489            0.0668108472593            0.0668108472593
            0.0583756345178           -0.7922411669499           -0.7922411669499           -0.6986616176542           -0.6986616176542           -0.6402572862845           -0.6402572862845            0.0427711621504            0.0427711621504
            0.0596446700508           -0.7990593938921           -0.7990593938921           -0.7199431017403           -0.7199431017403           -0.6626524010974           -0.6626524010974            0.0186411711879            0.0186411711879
            0.0609137055838           -0.8079052260437           -0.8079052260437           -0.7400979542538           -0.7400979542538           -0.6843025255145           -0.6843025255145           -0.0055547961449           -0.0055547961449
            0.0621827411168           -0.8195231609608           -0.8195231609608           -0.7588643644828           -0.7588643644828           -0.7046755486590           -0.7046755486590           -0.0297922991485           -0.0297922991485
            0.0634517766497           -0.8343430231154           -0.8343430231154           -0.7765520549537           -0.7765520549537           -0.7229824454465           -0.7229824454465           -0.0540468050256           -0.0540468050256
            0.0647208121827           -0.8520934877676           -0.8520934877676           -0.7942468719546           -0.7942468719546           -0.7383592166614           -0.7383592166614           -0.0782937074476           -0.0782937074476
            0.0659898477157           -0.8720056370368           -0.8720056370368           -0.8130595354790           -0.8130595354790           -0.7504146381493           -0.7504146381493           -0.1025083444605           -0.1025083444605
            0.0672588832487           -0.8933075314770           -0.8933075314770           -0.8333115441031           -0.8333115441031           -0.7595498403548           -0.7595498403548           -0.1266660156057           -0.1266660156057
            0.0685279187817           -0.9154458576270           -0.9154458576270           -0.8547133685439           -0.8547133685439           -0.7665585240564           -0.7665585240564           -0.1507419981168           -0.1507419981168
            0.0697969543147           -0.9380677902843           -0.9380677902843           -0.8768615065050           -0.8768615065050           -0.7721481010277           -0.7721481010277           -0.1747115620347           -0.1747115620347
            0.0710659898477           -0.9609509259902           -0.9609509259902           -0.8994435743239           -0.8994435743239           -0.7768047277263           -0.7768047277263           -0.1985499840651           -0.1985499840651
            0.0723350253807           -0.9839499478905           -0.9839499478905           -0.9222487299907           -0.9222487299907           -0.7808362774064           -0.7808362774064           -0.2222325599780           -0.2222325599780
            0.0736040609137           -1.0069645743025           -1.0069645743025           -0.9451359654778           -0.9451359654778           -0.7844361605371           -0.7844361605371           -0.2457346153256           -0.2457346153256
            0.0748730964467           -1.0299213701215           -1.0299213701215           -0.9680073467803           -0.9680073467803           -0.7877283361739           -0.7877283361739           -0.2690315142248           -0.2690315142248
            0.0761421319797           -1.0527634198742           -1.0527634198742           -0.9907911202489           -0.9907911202489           -0.7907945971061           -0.7907945971061           -0.2920986659245           -0.2920986659245
            0.0774111675127           -1.0754443379859           -1.0754443379859           -1.0134317287962           -1.0134317287962           -0.7936906098739           -0.7936906098739           -0.3149115288446           -0.3149115288446
            0.0786802030457           -1.0979246958733           -1.0979246958733           -1.0358839358988           -1.0358839358988           -0.7964554323911           -0.7964554323911           -0.3374456117463           -0.3374456117463
            0.0799492385787           -1.1201698281531           -1.1201698281531           -1.0581093077057           -1.0581093077057           -0.7991172968709           -0.7991172968709           -0.3596764716687           -0.3596764716687
            0.0812182741117           -1.1421484483432           -1.1421484483432           -1.0800740559123           -1.0800740559123           -0.8016972253295           -0.8016972253295           -0.3815797082500           -0.3815797082500
            0.0824873096447           -1.1638317535679           -1.1638317535679           -1.1017476815310           -1.1017476815310           -0.8042113583363           -0.8042113583363           -0.4031309540568           -0.4031309540568
            0.0837563451777           -1.1851928329241           -1.1851928329241           -1.1231021018179           -1.1231021018179           -0.8066725003728           -0.8066725003728           -0.4243058605751           -0.4243058605751
            0.0850253807107           -1.2062062693289           -1.2062062693289           -1.1441110762365           -1.1441110762365           -0.8090911762951           -0.8090911762951           -0.4450800796006           -0.4450800796006
            0.0862944162437           -1.2268478675930           -1.2268478675930           -1.1647498221545           -1.1647498221545           -0.8114763754995           -0.8114763754995           -0.4654292399258           -0.4654292399258
            0.0875634517766           -1.2470944666345           -1.2470944666345           -1.1849947537559           -1.1849947537559           -0.8138360921541           -0.8138360921541           -0.4853289194960           -0.4853289194960
            0.0888324873096           -1.2669238088798           -1.2669238088798           -1.2048233027066           -1.2048233027066           -0.8161777292244           -0.8161777292244           -0.5047546136649           -0.5047546136649
            0.0901015228426           -1.2863144492158           -1.2863144492158           -1.2242137941275           -1.2242137941275           -0.8185084089666           -0.8185084089666           -0.5236817008898           -0.5236817008898
            0.0913705583756           -1.3052456917245           -1.3052456917245           -1.2431453606495           -1.2431453606495           -0.8208352164038           -0.8208352164038           -0.5420854082903           -0.5420854082903
            0.0926395939086           -1.3236975461983           -1.3236975461983           -1.2615978830996           -1.2615978830996           -0.8231653911497           -0.8231653911497           -0.5599407810968           -0.5599407810968
            0.0939086294416           -1.3416506989067           -1.3416506989067           -1.2795519500661           -1.2795519500661           -0.8255064744903           -0.8255064744903           -0.5772226623023           -0.5772226623023
            0.0951776649746           -1.3590864937270           -1.3590864937270           -1.2969888310056           -1.2969888310056           -0.8278664113863           -0.8278664113863           -0.5939056920251           -0.5939056920251
            0.0964467005076           -1.3759869208706           -1.3759869208706           -1.3138904591533           -1.3138904591533           -0.8302536000878           -0.8302536000878           -0.6099643403382           -0.6099643403382
            0.0977157360406           -1.3923346112037           -1.3923346112037           -1.3302394215848           -1.3302394215848           -0.8326768748125           -0.8326768748125           -0.6253729927207           -0.6253729927207
            0.0989847715736           -1.4081128346960           -1.4081128346960           -1.3460189545145           -1.3460189545145           -0.8351453993391           -0.8351453993391           -0.6401061136018           -0.6401061136018
            0.1002538071066           -1.4233055019128           -1.4233055019128           -1.3612129424376           -1.3612129424376           -0.8376684419735           -0.8376684419735           -0.6541385199722           -0.6541385199722
            0.1015228426396           -1.4378971677356           -1.4378971677356           -1.3758059200816           -1.3758059200816           -0.8402549966966           -0.8402549966966           -0.6674458020529           -0.6674458020529
