@#  a(A)  Etot(eV)
3.5000 2.3425506791814872
3.5625 1.5759944483366080
3.6250 1.0111183471049696
3.6875 0.60922767509570586
3.7500 0.33825491154998294
3.8125 0.17251518189248108
3.8750 9.1463076364435389E-002
3.9375 7.8613078811819781E-002
4.0000 0.12073505449202257
4.0625 0.20710727527069758
4.1250 0.32894632037963589
4.1875 0.47902571731821231
4.2500 0.65132340477804784
4.3125 0.84087755279455589
4.3750 1.0429809989264875
4.4375 1.2543318964478569
4.5000 1.4714665275143100
